May 24, 2023   21:26:32
Amperometric i-t Curve
File: c:/users/mapence2/desktop/data/2023_05_24\expt2\mix_3\it_1.bin
Data Source:  Experiment
Instrument Model:  CHI760E
Header: CA
Note: 

Init E (V) = 0.7
Sample Interval (s) = 0.1
Run Time (sec) = 30
Quiet Time (sec) = 2
Sensitivity (A/V) = 1e-9

Results:

Channel 1:

Time/sec, Current/A

1.000e-1, -1.320e-10
2.000e-1, -1.293e-10
3.000e-1, -1.271e-10
4.000e-1, -1.250e-10
5.000e-1, -1.231e-10
6.000e-1, -1.213e-10
7.000e-1, -1.196e-10
8.000e-1, -1.181e-10
9.000e-1, -1.166e-10
1.000e+0, -1.152e-10
1.100e+0, -1.139e-10
1.200e+0, -1.127e-10
1.300e+0, -1.116e-10
1.400e+0, -1.106e-10
1.500e+0, -1.096e-10
1.600e+0, -1.086e-10
1.700e+0, -1.077e-10
1.800e+0, -1.069e-10
1.900e+0, -1.060e-10
2.000e+0, -1.052e-10
2.100e+0, -1.045e-10
2.200e+0, -1.038e-10
2.300e+0, -1.031e-10
2.400e+0, -1.025e-10
2.500e+0, -1.018e-10
2.600e+0, -1.012e-10
2.700e+0, -1.007e-10
2.800e+0, -1.001e-10
2.900e+0, -9.957e-11
3.000e+0, -9.904e-11
3.100e+0, -9.858e-11
3.200e+0, -9.808e-11
3.300e+0, -9.769e-11
3.400e+0, -9.726e-11
3.500e+0, -9.682e-11
3.600e+0, -9.645e-11
3.700e+0, -9.605e-11
3.800e+0, -9.570e-11
3.900e+0, -9.536e-11
4.000e+0, -9.506e-11
4.100e+0, -9.477e-11
4.200e+0, -9.446e-11
4.300e+0, -9.427e-11
4.400e+0, -9.389e-11
4.500e+0, -9.360e-11
4.600e+0, -9.331e-11
4.700e+0, -9.311e-11
4.800e+0, -9.288e-11
4.900e+0, -9.261e-11
5.000e+0, -9.237e-11
5.100e+0, -9.216e-11
5.200e+0, -9.193e-11
5.300e+0, -9.174e-11
5.400e+0, -9.151e-11
5.500e+0, -9.137e-11
5.600e+0, -9.120e-11
5.700e+0, -9.097e-11
5.800e+0, -9.075e-11
5.900e+0, -9.060e-11
6.000e+0, -9.046e-11
6.100e+0, -9.036e-11
6.200e+0, -9.013e-11
6.300e+0, -8.990e-11
6.400e+0, -8.980e-11
6.500e+0, -8.978e-11
6.600e+0, -8.975e-11
6.700e+0, -8.955e-11
6.800e+0, -8.949e-11
6.900e+0, -8.942e-11
7.000e+0, -8.919e-11
7.100e+0, -8.903e-11
7.200e+0, -8.891e-11
7.300e+0, -8.889e-11
7.400e+0, -8.897e-11
7.500e+0, -8.866e-11
7.600e+0, -8.855e-11
7.700e+0, -8.848e-11
7.800e+0, -8.811e-11
7.900e+0, -8.779e-11
8.000e+0, -8.759e-11
8.100e+0, -8.740e-11
8.200e+0, -8.730e-11
8.300e+0, -8.717e-11
8.400e+0, -8.718e-11
8.500e+0, -8.705e-11
8.600e+0, -8.685e-11
8.700e+0, -8.670e-11
8.800e+0, -8.648e-11
8.900e+0, -8.640e-11
9.000e+0, -8.625e-11
9.100e+0, -8.615e-11
9.200e+0, -8.611e-11
9.300e+0, -8.654e-11
9.400e+0, -8.622e-11
9.500e+0, -8.622e-11
9.600e+0, -8.625e-11
9.700e+0, -8.588e-11
9.800e+0, -8.565e-11
9.900e+0, -8.555e-11
1.000e+1, -8.552e-11
1.010e+1, -8.551e-11
1.020e+1, -8.538e-11
1.030e+1, -8.541e-11
1.040e+1, -8.529e-11
1.050e+1, -8.522e-11
1.060e+1, -8.526e-11
1.070e+1, -8.517e-11
1.080e+1, -8.509e-11
1.090e+1, -8.544e-11
1.100e+1, -8.528e-11
1.110e+1, -8.523e-11
1.120e+1, -8.506e-11
1.130e+1, -8.475e-11
1.140e+1, -8.454e-11
1.150e+1, -8.438e-11
1.160e+1, -8.439e-11
1.170e+1, -8.457e-11
1.180e+1, -8.457e-11
1.190e+1, -8.427e-11
1.200e+1, -8.393e-11
1.210e+1, -8.377e-11
1.220e+1, -8.365e-11
1.230e+1, -8.356e-11
1.240e+1, -8.347e-11
1.250e+1, -8.334e-11
1.260e+1, -8.357e-11
1.270e+1, -8.374e-11
1.280e+1, -8.340e-11
1.290e+1, -8.324e-11
1.300e+1, -8.319e-11
1.310e+1, -8.308e-11
1.320e+1, -8.296e-11
1.330e+1, -8.282e-11
1.340e+1, -8.272e-11
1.350e+1, -8.298e-11
1.360e+1, -8.320e-11
1.370e+1, -8.326e-11
1.380e+1, -8.318e-11
1.390e+1, -8.316e-11
1.400e+1, -8.294e-11
1.410e+1, -8.280e-11
1.420e+1, -8.280e-11
1.430e+1, -8.276e-11
1.440e+1, -8.273e-11
1.450e+1, -8.261e-11
1.460e+1, -8.262e-11
1.470e+1, -8.248e-11
1.480e+1, -8.241e-11
1.490e+1, -8.238e-11
1.500e+1, -8.232e-11
1.510e+1, -8.228e-11
1.520e+1, -8.222e-11
1.530e+1, -8.218e-11
1.540e+1, -8.215e-11
1.550e+1, -8.215e-11
1.560e+1, -8.214e-11
1.570e+1, -8.204e-11
1.580e+1, -8.198e-11
1.590e+1, -8.196e-11
1.600e+1, -8.190e-11
1.610e+1, -8.182e-11
1.620e+1, -8.185e-11
1.630e+1, -8.175e-11
1.640e+1, -8.170e-11
1.650e+1, -8.167e-11
1.660e+1, -8.171e-11
1.670e+1, -8.167e-11
1.680e+1, -8.172e-11
1.690e+1, -8.174e-11
1.700e+1, -8.165e-11
1.710e+1, -8.167e-11
1.720e+1, -8.164e-11
1.730e+1, -8.159e-11
1.740e+1, -8.160e-11
1.750e+1, -8.153e-11
1.760e+1, -8.152e-11
1.770e+1, -8.154e-11
1.780e+1, -8.149e-11
1.790e+1, -8.153e-11
1.800e+1, -8.156e-11
1.810e+1, -8.157e-11
1.820e+1, -8.150e-11
1.830e+1, -8.140e-11
1.840e+1, -8.145e-11
1.850e+1, -8.145e-11
1.860e+1, -8.135e-11
1.870e+1, -8.124e-11
1.880e+1, -8.123e-11
1.890e+1, -8.124e-11
1.900e+1, -8.127e-11
1.910e+1, -8.117e-11
1.920e+1, -8.107e-11
1.930e+1, -8.099e-11
1.940e+1, -8.099e-11
1.950e+1, -8.101e-11
1.960e+1, -8.097e-11
1.970e+1, -8.098e-11
1.980e+1, -8.100e-11
1.990e+1, -8.098e-11
2.000e+1, -8.100e-11
2.010e+1, -8.091e-11
2.020e+1, -8.098e-11
2.030e+1, -8.097e-11
2.040e+1, -8.101e-11
2.050e+1, -8.105e-11
2.060e+1, -8.104e-11
2.070e+1, -8.099e-11
2.080e+1, -8.097e-11
2.090e+1, -8.101e-11
2.100e+1, -8.098e-11
2.110e+1, -8.093e-11
2.120e+1, -8.106e-11
2.130e+1, -8.109e-11
2.140e+1, -8.099e-11
2.150e+1, -8.096e-11
2.160e+1, -8.088e-11
2.170e+1, -8.095e-11
2.180e+1, -8.095e-11
2.190e+1, -8.088e-11
2.200e+1, -8.083e-11
2.210e+1, -8.084e-11
2.220e+1, -8.078e-11
2.230e+1, -8.071e-11
2.240e+1, -8.074e-11
2.250e+1, -8.075e-11
2.260e+1, -8.073e-11
2.270e+1, -8.065e-11
2.280e+1, -8.058e-11
2.290e+1, -8.054e-11
2.300e+1, -8.049e-11
2.310e+1, -8.052e-11
2.320e+1, -8.050e-11
2.330e+1, -8.049e-11
2.340e+1, -8.045e-11
2.350e+1, -8.040e-11
2.360e+1, -8.038e-11
2.370e+1, -8.032e-11
2.380e+1, -8.029e-11
2.390e+1, -8.023e-11
2.400e+1, -8.020e-11
2.410e+1, -8.021e-11
2.420e+1, -8.017e-11
2.430e+1, -8.012e-11
2.440e+1, -8.006e-11
2.450e+1, -8.007e-11
2.460e+1, -8.002e-11
2.470e+1, -7.998e-11
2.480e+1, -7.996e-11
2.490e+1, -7.996e-11
2.500e+1, -7.989e-11
2.510e+1, -7.987e-11
2.520e+1, -7.981e-11
2.530e+1, -7.976e-11
2.540e+1, -7.980e-11
2.550e+1, -7.973e-11
2.560e+1, -7.971e-11
2.570e+1, -7.968e-11
2.580e+1, -7.968e-11
2.590e+1, -7.965e-11
2.600e+1, -7.963e-11
2.610e+1, -7.962e-11
2.620e+1, -7.956e-11
2.630e+1, -7.957e-11
2.640e+1, -7.953e-11
2.650e+1, -7.952e-11
2.660e+1, -7.952e-11
2.670e+1, -7.944e-11
2.680e+1, -7.943e-11
2.690e+1, -7.939e-11
2.700e+1, -7.940e-11
2.710e+1, -7.940e-11
2.720e+1, -7.934e-11
2.730e+1, -7.937e-11
2.740e+1, -7.930e-11
2.750e+1, -7.930e-11
2.760e+1, -7.929e-11
2.770e+1, -7.924e-11
2.780e+1, -7.923e-11
2.790e+1, -7.921e-11
2.800e+1, -7.921e-11
2.810e+1, -7.920e-11
2.820e+1, -7.912e-11
2.830e+1, -7.917e-11
2.840e+1, -7.911e-11
2.850e+1, -7.914e-11
2.860e+1, -7.914e-11
2.870e+1, -7.913e-11
2.880e+1, -7.916e-11
2.890e+1, -7.916e-11
2.900e+1, -7.912e-11
2.910e+1, -7.906e-11
2.920e+1, -7.908e-11
2.930e+1, -7.908e-11
2.940e+1, -7.911e-11
2.950e+1, -7.915e-11
2.960e+1, -7.915e-11
2.970e+1, -7.919e-11
2.980e+1, -7.917e-11
2.990e+1, -7.916e-11
3.000e+1, -7.919e-11
