May 24, 2023   17:19:31
Amperometric i-t Curve
File: c:/users/mapence2/desktop/data/2023_05_24\expt1\mix_3\it_1.bin
Data Source:  Experiment
Instrument Model:  CHI760E
Header: CA
Note: 

Init E (V) = 0.7
Sample Interval (s) = 0.1
Run Time (sec) = 30
Quiet Time (sec) = 2
Sensitivity (A/V) = 1e-9

Results:

Channel 1:

Time/sec, Current/A

1.000e-1, -2.876e-10
2.000e-1, -2.831e-10
3.000e-1, -2.791e-10
4.000e-1, -2.754e-10
5.000e-1, -2.719e-10
6.000e-1, -2.686e-10
7.000e-1, -2.655e-10
8.000e-1, -2.628e-10
9.000e-1, -2.604e-10
1.000e+0, -2.580e-10
1.100e+0, -2.558e-10
1.200e+0, -2.536e-10
1.300e+0, -2.516e-10
1.400e+0, -2.497e-10
1.500e+0, -2.478e-10
1.600e+0, -2.461e-10
1.700e+0, -2.443e-10
1.800e+0, -2.428e-10
1.900e+0, -2.414e-10
2.000e+0, -2.400e-10
2.100e+0, -2.385e-10
2.200e+0, -2.373e-10
2.300e+0, -2.359e-10
2.400e+0, -2.347e-10
2.500e+0, -2.335e-10
2.600e+0, -2.325e-10
2.700e+0, -2.314e-10
2.800e+0, -2.304e-10
2.900e+0, -2.293e-10
3.000e+0, -2.285e-10
3.100e+0, -2.274e-10
3.200e+0, -2.265e-10
3.300e+0, -2.255e-10
3.400e+0, -2.247e-10
3.500e+0, -2.239e-10
3.600e+0, -2.231e-10
3.700e+0, -2.223e-10
3.800e+0, -2.215e-10
3.900e+0, -2.208e-10
4.000e+0, -2.200e-10
4.100e+0, -2.194e-10
4.200e+0, -2.188e-10
4.300e+0, -2.181e-10
4.400e+0, -2.174e-10
4.500e+0, -2.168e-10
4.600e+0, -2.161e-10
4.700e+0, -2.155e-10
4.800e+0, -2.150e-10
4.900e+0, -2.144e-10
5.000e+0, -2.138e-10
5.100e+0, -2.131e-10
5.200e+0, -2.126e-10
5.300e+0, -2.120e-10
5.400e+0, -2.114e-10
5.500e+0, -2.109e-10
5.600e+0, -2.104e-10
5.700e+0, -2.098e-10
5.800e+0, -2.093e-10
5.900e+0, -2.088e-10
6.000e+0, -2.083e-10
6.100e+0, -2.078e-10
6.200e+0, -2.074e-10
6.300e+0, -2.070e-10
6.400e+0, -2.065e-10
6.500e+0, -2.060e-10
6.600e+0, -2.056e-10
6.700e+0, -2.052e-10
6.800e+0, -2.048e-10
6.900e+0, -2.044e-10
7.000e+0, -2.039e-10
7.100e+0, -2.036e-10
7.200e+0, -2.032e-10
7.300e+0, -2.029e-10
7.400e+0, -2.024e-10
7.500e+0, -2.021e-10
7.600e+0, -2.017e-10
7.700e+0, -2.013e-10
7.800e+0, -2.009e-10
7.900e+0, -2.006e-10
8.000e+0, -2.003e-10
8.100e+0, -1.999e-10
8.200e+0, -1.996e-10
8.300e+0, -1.993e-10
8.400e+0, -1.989e-10
8.500e+0, -1.986e-10
8.600e+0, -1.983e-10
8.700e+0, -1.980e-10
8.800e+0, -1.976e-10
8.900e+0, -1.973e-10
9.000e+0, -1.969e-10
9.100e+0, -1.967e-10
9.200e+0, -1.965e-10
9.300e+0, -1.963e-10
9.400e+0, -1.961e-10
9.500e+0, -1.957e-10
9.600e+0, -1.954e-10
9.700e+0, -1.951e-10
9.800e+0, -1.949e-10
9.900e+0, -1.946e-10
1.000e+1, -1.943e-10
1.010e+1, -1.940e-10
1.020e+1, -1.940e-10
1.030e+1, -1.938e-10
1.040e+1, -1.934e-10
1.050e+1, -1.931e-10
1.060e+1, -1.929e-10
1.070e+1, -1.927e-10
1.080e+1, -1.924e-10
1.090e+1, -1.923e-10
1.100e+1, -1.919e-10
1.110e+1, -1.915e-10
1.120e+1, -1.914e-10
1.130e+1, -1.911e-10
1.140e+1, -1.910e-10
1.150e+1, -1.907e-10
1.160e+1, -1.904e-10
1.170e+1, -1.902e-10
1.180e+1, -1.899e-10
1.190e+1, -1.896e-10
1.200e+1, -1.895e-10
1.210e+1, -1.892e-10
1.220e+1, -1.890e-10
1.230e+1, -1.889e-10
1.240e+1, -1.885e-10
1.250e+1, -1.884e-10
1.260e+1, -1.883e-10
1.270e+1, -1.880e-10
1.280e+1, -1.879e-10
1.290e+1, -1.876e-10
1.300e+1, -1.873e-10
1.310e+1, -1.871e-10
1.320e+1, -1.872e-10
1.330e+1, -1.869e-10
1.340e+1, -1.868e-10
1.350e+1, -1.865e-10
1.360e+1, -1.863e-10
1.370e+1, -1.863e-10
1.380e+1, -1.863e-10
1.390e+1, -1.861e-10
1.400e+1, -1.859e-10
1.410e+1, -1.857e-10
1.420e+1, -1.855e-10
1.430e+1, -1.854e-10
1.440e+1, -1.851e-10
1.450e+1, -1.849e-10
1.460e+1, -1.846e-10
1.470e+1, -1.844e-10
1.480e+1, -1.842e-10
1.490e+1, -1.840e-10
1.500e+1, -1.836e-10
1.510e+1, -1.835e-10
1.520e+1, -1.834e-10
1.530e+1, -1.831e-10
1.540e+1, -1.830e-10
1.550e+1, -1.829e-10
1.560e+1, -1.827e-10
1.570e+1, -1.826e-10
1.580e+1, -1.824e-10
1.590e+1, -1.823e-10
1.600e+1, -1.820e-10
1.610e+1, -1.821e-10
1.620e+1, -1.819e-10
1.630e+1, -1.817e-10
1.640e+1, -1.815e-10
1.650e+1, -1.813e-10
1.660e+1, -1.812e-10
1.670e+1, -1.811e-10
1.680e+1, -1.810e-10
1.690e+1, -1.808e-10
1.700e+1, -1.807e-10
1.710e+1, -1.805e-10
1.720e+1, -1.804e-10
1.730e+1, -1.802e-10
1.740e+1, -1.801e-10
1.750e+1, -1.800e-10
1.760e+1, -1.798e-10
1.770e+1, -1.795e-10
1.780e+1, -1.795e-10
1.790e+1, -1.793e-10
1.800e+1, -1.790e-10
1.810e+1, -1.789e-10
1.820e+1, -1.788e-10
1.830e+1, -1.785e-10
1.840e+1, -1.783e-10
1.850e+1, -1.781e-10
1.860e+1, -1.780e-10
1.870e+1, -1.779e-10
1.880e+1, -1.778e-10
1.890e+1, -1.775e-10
1.900e+1, -1.775e-10
1.910e+1, -1.772e-10
1.920e+1, -1.770e-10
1.930e+1, -1.771e-10
1.940e+1, -1.770e-10
1.950e+1, -1.768e-10
1.960e+1, -1.767e-10
1.970e+1, -1.766e-10
1.980e+1, -1.764e-10
1.990e+1, -1.763e-10
2.000e+1, -1.761e-10
2.010e+1, -1.759e-10
2.020e+1, -1.758e-10
2.030e+1, -1.757e-10
2.040e+1, -1.757e-10
2.050e+1, -1.755e-10
2.060e+1, -1.753e-10
2.070e+1, -1.752e-10
2.080e+1, -1.752e-10
2.090e+1, -1.750e-10
2.100e+1, -1.748e-10
2.110e+1, -1.747e-10
2.120e+1, -1.745e-10
2.130e+1, -1.744e-10
2.140e+1, -1.742e-10
2.150e+1, -1.741e-10
2.160e+1, -1.739e-10
2.170e+1, -1.738e-10
2.180e+1, -1.737e-10
2.190e+1, -1.735e-10
2.200e+1, -1.735e-10
2.210e+1, -1.733e-10
2.220e+1, -1.731e-10
2.230e+1, -1.730e-10
2.240e+1, -1.730e-10
2.250e+1, -1.728e-10
2.260e+1, -1.726e-10
2.270e+1, -1.726e-10
2.280e+1, -1.724e-10
2.290e+1, -1.723e-10
2.300e+1, -1.722e-10
2.310e+1, -1.720e-10
2.320e+1, -1.719e-10
2.330e+1, -1.718e-10
2.340e+1, -1.717e-10
2.350e+1, -1.716e-10
2.360e+1, -1.715e-10
2.370e+1, -1.713e-10
2.380e+1, -1.712e-10
2.390e+1, -1.711e-10
2.400e+1, -1.710e-10
2.410e+1, -1.709e-10
2.420e+1, -1.708e-10
2.430e+1, -1.707e-10
2.440e+1, -1.706e-10
2.450e+1, -1.705e-10
2.460e+1, -1.704e-10
2.470e+1, -1.702e-10
2.480e+1, -1.702e-10
2.490e+1, -1.700e-10
2.500e+1, -1.699e-10
2.510e+1, -1.698e-10
2.520e+1, -1.697e-10
2.530e+1, -1.697e-10
2.540e+1, -1.695e-10
2.550e+1, -1.694e-10
2.560e+1, -1.693e-10
2.570e+1, -1.693e-10
2.580e+1, -1.691e-10
2.590e+1, -1.690e-10
2.600e+1, -1.689e-10
2.610e+1, -1.688e-10
2.620e+1, -1.686e-10
2.630e+1, -1.685e-10
2.640e+1, -1.684e-10
2.650e+1, -1.683e-10
2.660e+1, -1.682e-10
2.670e+1, -1.681e-10
2.680e+1, -1.680e-10
2.690e+1, -1.679e-10
2.700e+1, -1.679e-10
2.710e+1, -1.678e-10
2.720e+1, -1.677e-10
2.730e+1, -1.675e-10
2.740e+1, -1.674e-10
2.750e+1, -1.673e-10
2.760e+1, -1.672e-10
2.770e+1, -1.671e-10
2.780e+1, -1.670e-10
2.790e+1, -1.668e-10
2.800e+1, -1.668e-10
2.810e+1, -1.666e-10
2.820e+1, -1.666e-10
2.830e+1, -1.665e-10
2.840e+1, -1.664e-10
2.850e+1, -1.663e-10
2.860e+1, -1.663e-10
2.870e+1, -1.661e-10
2.880e+1, -1.661e-10
2.890e+1, -1.659e-10
2.900e+1, -1.658e-10
2.910e+1, -1.657e-10
2.920e+1, -1.656e-10
2.930e+1, -1.655e-10
2.940e+1, -1.654e-10
2.950e+1, -1.653e-10
2.960e+1, -1.652e-10
2.970e+1, -1.651e-10
2.980e+1, -1.651e-10
2.990e+1, -1.649e-10
3.000e+1, -1.649e-10
